Time,Altitude,Vertical Velocity,Horizontal Velocity,Total Velocity,Drag,Displacement
2.1800000000475848,92.68290200945921,3.2852161161511835,0.014361450575124656,3.2852475068222926,117.77623096557372,0.009760340158839807
2.300000000050204,93.10034351865761,3.602580864435802,0.015304090242939015,3.602613370870815,142.27609305407069,0.01155305692912857
2.4200000000528235,93.55522531014867,3.9102663230727566,0.015629181411001784,3.910297557561127,173.32808911372064,0.01341242114925232
2.540000000055443,94.0468881680863,4.216751540371847,0.01582631141745508,4.216781239922392,211.6847491586379,0.015300137658245068
2.660000000058062,94.57537358999252,4.523869077063807,0.015978286273581443,4.523897294595268,257.99021104198727,0.017203017658130912
2.7800000000606815,95.14075901615433,4.831630565469604,0.01610740046636182,4.831657414338263,314.89092143645206,0.0191207970686678
2.900000000063301,95.74312186648604,5.140038864864242,0.01619646904424992,5.140064382663352,374.0077956991706,0.021047251289282642
3.02000000006592,96.38254194287583,5.449151159479363,0.016216619683600168,5.449175289675424,417.4171346064615,0.022976180134470156
3.1400000000685395,97.05913329066243,5.759502609344572,0.015940719335344727,5.759524669066003,463.30520034739214,0.02487953987432103
3.260000000071159,97.77317738253623,6.072908010863046,0.015587296761816872,6.072928014740905,512.4822742334256,0.026733789170968775
3.380000000073778,98.52503436640836,6.3891729897108,0.015368115783858558,6.389191472434739,565.1994665295265,0.028544002909740976
3.5000000000763976,99.31501772720367,6.70789258994057,0.01524955118533492,6.707909923887691,608.1265059738241,0.030323525323719056
3.620000000079017,100.14340019051451,7.028727804258607,0.015185738489592687,7.028744208819346,651.7087795581594,0.0320801875833049
3.7400000000816362,101.0104119470343,7.35139968087819,0.015143882018619893,7.351415279058758,688.0414264847802,0.03381684319972731
3.8600000000842556,101.91625894757453,7.675662391129807,0.015147290955476917,7.675677337084189,732.8342582637797,0.03553628449760978
3.980000000086875,102.86111693817656,8.001310994649527,0.015184145219735089,8.00132540216716,785.4146558962959,0.037241986822254707
4.100000000089494,103.84514091257006,8.328178421620356,0.01522970250578946,8.328192346853028,844.8838204484729,0.03893352521846674
4.220000000092114,104.8684658963466,8.656132474142462,0.015287793941317187,8.656145974193555,910.856741463229,0.04061050906455644
4.340000000094733,105.93121603596956,8.985065954023183,0.015331566062072692,8.985079034436172,982.8593321374885,0.042271474837595344
4.460000000097352,107.03350135649089,9.314892575751408,0.015404218097179049,9.31490531286947,1060.2587135971833,0.0439173530277503
4.580000000099972,108.1754249833757,9.645542471675878,0.015468322048234418,9.645554874753977,1142.0863940954523,0.04554829419321509
4.700000000102591,109.3570818763692,9.976958820533,0.015585040034817445,9.976970993246603,1228.3560579847972,0.04716452255083871
4.82000000010521,110.57856093381997,10.309096182515853,0.01570929331932381,10.309108151642388,1318.8776163934283,0.04876606215320127
4.94000000010783,111.8399455276085,10.6419162028134,0.015830257076196386,10.641927976863096,1413.1034358093261,0.05035295309964054
5.0400000001100125,112.92164045770187,10.919767217871213,0.01593643947738205,10.919778846780645,1493.668178893214,0.05166340653596963
5.160000000112632,114.25638960348442,11.253762204584168,0.016027750329545346,11.25377361804065,1596.1864108540944,0.053221410473163394
5.280000000115251,115.63126182428095,11.588361050810418,0.01613635438747265,11.588372285436504,1702.7120794929162,0.054761147275973365
5.4000000001178705,117.04632778640371,11.923543817143493,0.01627890060537176,11.923554929715623,1813.4631469766653,0.05628461642268236
5.52000000012049,118.50165593600832,12.25928720602948,0.016408602010191356,12.259298187177682,1928.6770722847368,0.0577939885328831
5.640000000123109,119.99731054180302,12.595570135139333,0.016540530752012245,12.59558099566556,2048.8151940890702,0.059289167893002925
5.7600000001257285,121.53335794690065,12.932367846172948,0.01663543630295203,12.932378545591252,2174.57530299955,0.060766298967135896
5.880000000128348,123.10985522018746,13.269648305288696,0.016698580459210736,13.269658812065988,2307.1144005972415,0.062225983067965965
6.000000000130967,124.72685939481016,13.607368863827732,0.01675865429482359,13.607379183691553,2448.624580625632,0.06366654374714084
6.120000000133587,126.3844187305076,13.945466145354839,0.016835986705150307,13.945476308168406,2603.271747577861,0.06508763654133642
6.240000000136206,128.08256853278726,14.283825456100338,0.01689525505493462,14.283835448155491,2780.679323213698,0.06648893113146778
6.360000000138825,129.82132281840313,14.622149996133261,0.0169359893416918,14.622159804117684,3016.5315825002913,0.06787169799672221
6.480000000141445,131.60060161643196,14.959318832869123,0.0169336439747958,14.959328417135946,3422.676092377254,0.06923367448069696
6.600000000144064,133.4202047419967,15.294409614763266,0.016934197886858744,15.294418989658322,3841.9695660611005,0.0705690511115124
6.720000000146683,135.2800044416217,15.62956357124613,0.01691125567820645,15.629572720269506,3949.397163771557,0.07188420239600224
6.840000000149303,137.18008741387166,15.965669436663545,0.016839354162973264,15.965678317085718,4051.768275108141,0.0731771781180811
6.960000000151922,139.12058741447981,16.30295085202827,0.016740025635580955,16.302959446435104,4093.4575335373133,0.07444372336313065
7.080000000154541,141.10165608639363,16.641598384773882,0.016621855295723315,16.641606685839626,4091.3073940860295,0.07568202843147376
7.200000000157161,143.12345876626205,16.981641930793245,0.01644959971019434,16.981649897904678,4076.8954162348327,0.07689049451176766
7.32000000015978,145.18616467376705,17.323059925004422,0.016247481665273643,17.32306754434545,4066.4263385003974,0.07806711218176436
7.440000000162399,147.28994005115237,17.665803789967885,0.016045237634462334,17.665811076633148,4071.453293890501,0.07921389170402503
7.560000000165019,149.43492998019792,18.009798929782978,0.015747878001142888,18.009805814801936,4098.440172087678,0.08032607245915241
7.680000000167638,151.6212875948986,18.354968641759175,0.015455827608060097,18.354975149058898,4150.591653710771,0.08139680690442337
7.800000000170257,153.84914038446732,18.701240732302548,0.015164719228435219,18.701246880789558,4215.696950110156,0.08242692896404354
7.920000000172877,156.1186200196389,19.048550981653616,0.01482419804715712,19.04855674998777,4292.730834191595,0.08341081808675187
8.040000000175496,158.42984806571621,19.39684073638921,0.014442259481016392,19.396846113007825,4381.958857455049,0.08434550287843412
8.160000000178115,160.78293239243794,19.746054481021343,0.013966202045515285,19.746059420103613,4483.051579038938,0.08522734532789196
8.280000000180735,163.17798920325004,20.096139935029154,0.013469343457564018,20.09614444891076,4595.5943096701085,0.08605093743630166
8.400000000183354,165.61511261062697,20.447049475303857,0.013001282207316544,20.447053608744287,4719.608437806836,0.08681209458868602
8.520000000185973,168.09440156375058,20.79873750656859,0.012499240895755728,20.79874126234965,4854.650289693083,0.0875150426590383
8.640000000188593,170.6159442126518,21.15116186883334,0.011927515425260084,21.151165231901853,5000.390358375856,0.08814101508814681
8.760000000191212,173.1798299391521,21.504284442399182,0.011366909687657748,21.50428744660579,5157.118916968004,0.08868361649416454
8.880000000193832,175.78613920637872,21.858063397306655,0.010789507728836339,21.858066060247737,5326.170077175471,0.08914393790439899
9.00000000019645,178.43494348728564,22.212452408912476,0.010246783426949858,22.212454772374265,5510.183681615747,0.08950970200537713
9.12000000019907,181.1263012153795,22.567239148133858,0.00968485104379478,22.5672412262865,5793.492072627518,0.08978230414983929
9.24000000020169,183.86026364273857,22.922365824776744,0.009175937145740163,22.922367661363328,6037.530135323193,0.08995826646499029
9.360000000204309,186.63685338711366,23.277628392300734,0.008773923437711417,23.277630045856853,6373.713193709936,0.09002718920787983
9.480000000206928,189.45608175860252,23.63303177508124,0.008483566672755748,23.63303329775725,6616.010624041563,0.08998249481564713
9.580000000209111,191.83804436807986,23.929617100489672,0.008308886072385824,23.929618543003052,6753.423293461835,0.0898540269172222
9.70000000021173,194.73558919935022,24.28614020606907,0.008262589456785815,24.28614161161112,6896.012899135473,0.08958711192900455
9.82000000021435,197.67597403621767,24.64339007483947,0.008384359937477492,24.6433915011345,7027.1553285921555,0.08918476586828403
9.940000000216969,200.65927042637486,25.001384747492843,0.00867619491416617,25.001386252936573,7166.122976808216,0.08865378799385812
10.060000000219588,203.68559152481612,25.36012388682238,0.009216015950281375,25.36012556139912,7309.728949448219,0.08797232775967641
10.180000000222208,206.7550100387307,25.719605595079273,0.009941603601177228,25.719607516482736,7458.655848859507,0.08713878699617257
10.300000000224827,209.86761179729365,26.07981151774768,0.010730675444284337,26.079813725343975,7622.018723235227,0.08615286420622792
10.420000000227446,213.0234980584355,26.44072615579502,0.011692225513606378,26.440728740976116,7790.6941964693015,0.08500573852772236
10.540000000230066,216.22274153493345,26.802333684514675,0.012832039343977355,26.80233675628496,7965.727112125204,0.08369284942450263
10.660000000232685,219.4654255801579,27.16461871722314,0.01408012750664822,27.16462236627081,8147.017330353632,0.08219890305602814
10.780000000235304,222.75163603201509,27.527562116011197,0.01540292230811405,27.527566425328455,8336.084069243692,0.08051925486613697
10.900000000237924,226.08144204935525,27.8911466125699,0.01679405640028106,27.89115166866008,8531.353798501026,0.07865597326285546
11.020000000240543,229.45492104487494,28.255356563256957,0.018347844997779524,28.255362520417325,8738.233016213448,0.07659644991408125
11.140000000243163,232.87214333098382,28.620061225101765,0.01994916889466048,28.620068177729994,9002.084231522616,0.07433803401081981
11.260000000245782,236.33317558572162,28.985308156849992,0.02154516658104106,28.985316164253888,9214.138780431493,0.07187150089721532
11.380000000248401,239.83807029412128,29.351094306434153,0.02316929426908053,29.351103451171785,9445.72675764602,0.06920358677699417
11.50000000025102,243.3868822613731,29.71721827361443,0.024950062262131943,29.717228747432866,9785.64944105278,0.06632472685016988
11.62000000025364,246.97966151090804,30.08371737892097,0.02681261216021007,30.083729327511282,10051.434702973022,0.06322015253613689
11.74000000025626,250.61644981312566,30.45076652916053,0.028675638993125897,30.450780031153798,10272.295970355943,0.05988875510199248
11.860000000258879,254.2973353000125,30.818411659563413,0.030569581397568154,30.818426820939788,10487.859731249278,0.056323472261725835
11.980000000261498,258.02238119393587,31.18666707218206,0.0325456622031365,31.186684054115997,10702.103885023835,0.05252575736704879
12.100000000264117,261.79166491655633,31.555537838916027,0.034595825850202676,31.555556803428892,10921.084388902767,0.04847896033052284
12.220000000266737,265.60524969839025,31.92501653965882,0.03672882665137933,31.925037667388843,11143.65806746904,0.044179973680507675
12.340000000269356,269.4632177390158,32.295105595007676,0.03892177138097299,32.29512904908391,11370.716154810509,0.03961935964756537
12.460000000271975,273.365629770793,32.665802065880136,0.04115240523570248,32.66582798778742,11600.076385164968,0.03479339470044835
12.580000000274595,277.31258944957517,33.037118253170966,0.04348694785491302,33.037146874217754,11823.685885574238,0.029693657116583304
12.700000000277214,281.30412898003124,33.4089841689029,0.04581687464179703,33.409015585377645,12086.584824122372,0.024310170815025747
12.820000000279833,285.3403341815574,33.78136318464802,0.048242069007343964,33.78139763109743,12351.93942789341,0.018649408776710313
12.940000000282453,289.42126696021296,34.15427246828434,0.05072314985722691,34.1543101332136,12612.834932543632,0.012697701851606437
13.060000000285072,293.54699648183305,34.52770993454271,0.05324522077699757,34.52775098927608,12877.640628945288,0.0064803231600585945
13.180000000287691,297.71756566653494,34.90165988306609,0.055841250477419585,34.90170455491364,13154.234574376429,0.0012135537110373484
13.30000000029031,301.93303889001254,35.276072508974586,0.05845290984642989,35.27612093755636,13457.386819612244,0.007197705961347846
13.42000000029293,306.1934661604464,35.65091168117659,0.06106150980389413,35.65096397304052,13775.846508578297,0.014349628437976917
13.54000000029555,310.4989189397311,36.02621611431204,0.06376140676256402,36.02627253869194,14069.788153593161,0.02185232289294715
13.660000000298169,314.84944724850357,36.402036091823405,0.0665606410091896,36.40209694439793,14347.222633303232,0.02969383635009754
13.780000000300788,319.24510359647684,36.778396375124224,0.06945671880262957,36.77846196024974,14622.004575387093,0.0378785693497899
13.900000000303407,323.6859665585216,37.155314960560354,0.07244409696174149,37.155385584940774,14889.83700562779,0.04642282063750031
14.020000000306027,328.1720982086845,37.532800057590684,0.07549113974751012,37.532875976605624,15154.893285699283,0.05532630232401933
14.140000000308646,332.7035698320251,37.910826838940984,0.07860311354637789,37.91090832546257,15436.173480283804,0.06460319416206997
14.260000000311265,337.2804458056344,38.28935195674033,0.08178268749990387,38.289439296953795,15740.553274062131,0.07425736319970926
14.380000000313885,341.90278818889055,38.66836511428025,0.08484831566188063,38.66845820365685,16046.470540576878,0.08428094184025557
14.500000000316504,346.57063493994065,39.047867798872296,0.0880928517693831,39.04796716845502,16353.37455280437,0.09469171389329403
14.620000000319124,351.28405771951657,39.42785808429199,0.0913678614690955,39.427963949475995,16663.21305532701,0.1054938449934
14.740000000321743,356.04312091041356,39.80833422296106,0.09480592679868448,39.808447115791,16975.482416433664,0.1166944963734938
14.860000000324362,360.84788163693156,40.18929281283478,0.09828556646953265,40.189412994572955,17292.705904583563,0.12831490390694922
14.980000000326982,365.6983805061318,40.570729705914005,0.1018059681833131,40.570857438874654,17612.674688795432,0.14034986123965826
15.1000000003296,370.59469606843777,40.95264052550441,0.10523267121237556,40.95277572920151,17938.00850614688,0.15280333979188696
15.22000000033222,375.5368497838499,41.33501837433726,0.10881892262326709,41.33516161290191,18267.87536455061,0.16567718108814727
15.34000000033484,380.52493707323447,41.71785704216412,0.11242423534301885,41.718008526284365,18603.2505855414,0.17897964258877086
15.460000000337459,385.55900316429324,42.10114983121732,0.11610535600910481,42.101309926940566,18943.82551119538,0.19272067586405273
15.580000000340078,390.63909328123555,42.484902782497045,0.11983317780545262,42.485071783259684,19282.914493186305,0.20690816010901014
15.700000000342698,395.76527180254925,42.86911967578023,0.12364450090075636,42.86929798514283,19620.707880621616,0.22154713187489466
15.820000000345317,400.93758395977784,43.25380301025618,0.12749706548769646,43.2539909182003,19959.283702392666,0.23664946690175087
15.940000000347936,406.15609181753825,43.63895128336384,0.13136626568400267,43.63914900874629,20302.178811906622,0.252210551062535
16.060000000350556,411.4208524856949,44.024556187672445,0.13536882812029527,44.02476430648045,20649.677377574837,0.26824331080169844
16.180000000353175,416.73192307609133,44.410611888258835,0.13932603130329693,44.41083043619603,21002.559688840258,0.28476154673625653
16.300000000355794,422.08934189670254,44.797113801843615,0.14343884125639145,44.79734344441095,21359.852133407985,0.30175902243248326
16.420000000358414,427.4931779560866,45.18405957826384,0.14768499552235298,45.18430093328875,21721.017601646883,0.319260941795349
16.540000000361033,432.9434837541776,45.5714446226846,0.151934564104252,45.57169789584517,22084.118538835366,0.33727113151598126
16.660000000363652,438.4403186994605,45.95926846434297,0.15627699552052063,45.95953416079061,22451.731839562795,0.35580314451396494
16.78000000036627,443.9836996567901,46.347526706194394,0.16071123190981948,46.347805340506305,22822.33996748903,0.37485842229154676
16.90000000036889,449.5737028802978,46.73621932091173,0.16516117327305746,46.736511151620206,23196.406932737253,0.3944413018592796
17.02000000037151,455.2104092481313,47.125337977995216,0.16973272946903242,47.1256436427104,23573.405837139344,0.414572311790506
17.14000000037413,460.8937950126128,47.51487998695088,0.17442900922717805,47.51520015377822,23953.546231549983,0.43525516184610796
17.26000000037675,466.6240077065304,47.9048443242412,0.17903909948089233,47.90517889256785,24336.365221813896,0.45650329722311833
17.38000000037937,472.4010093900142,48.29522939463283,0.1838314436806529,48.295579262287475,24722.66537885036,0.4783101410955469
17.500000000381988,478.2249142921064,48.686033069091366,0.18870258128147385,48.68639876463282,25112.258216990766,0.50070617103676
17.620000000384607,484.0957273875829,49.07725247883624,0.1936948625955237,49.07763470840087,25505.016373457525,0.5236855562098752
17.740000000387226,490.01352955272887,49.46888173345488,0.19877114115287262,49.46928107346114,25902.080823205455,0.5472680280286564
17.860000000389846,495.97833498963155,49.860915098926355,0.20397426337458238,49.86133231274974,26300.09805672752,0.5714691375685887
17.980000000392465,501.990243716049,50.25335769764759,0.20907512818147272,50.253792616049786,26701.262343628263,0.5962984902863574
18.100000000395084,508.0492465082789,50.64620586913343,0.21433685384458048,50.646659408351525,27107.964461580228,0.6217366646854003
18.220000000397704,514.1554480032064,51.0394559757619,0.21957565766060463,51.039928289244045,27513.52057034734,0.6478070615667324
18.340000000400323,520.3088623916265,51.43310364192857,0.22497975759835917,51.43359569515527,27926.5856049996,0.6745189954395251
18.460000000402943,526.509523054352,51.827143690894935,0.23062673271928769,51.827656823809,28339.67358257139,0.7018992005066576
18.580000000405562,532.7575445456896,52.221575543012285,0.2361472387992093,52.222109472070656,28757.63080308371,0.7299414329708682
18.70000000040818,539.0528885814128,52.61640008522245,0.2419431118178677,52.616956339164595,29178.609034488647,0.7586652529027215
18.8200000004108,545.3956601802493,53.01160569676566,0.24793233408919885,53.01218547646989,29603.57177224287,0.788089300180812
18.94000000041342,551.7858494404936,53.407197167768004,0.2539999246737821,53.407801164985074,30028.841624282155,0.8182523076876623
19.06000000041604,558.2235329477116,53.803168841284595,0.26000750403252465,53.80379708966581,30460.987924345012,0.8491251013305031
19.18000000041866,564.7088057678193,54.19951826805394,0.2662725871970055,54.200172339023105,30892.775268651087,0.8807363224333985
19.300000000421278,571.2416441971436,54.59623540300261,0.27293670520221197,54.5969176293417,31331.067422744956,0.9131144940814598
19.420000000423897,577.8221241418505,54.99333089898491,0.2793474015975436,54.99404038926425,31770.754923909655,0.9462882477755553
19.540000000426517,584.4502792578423,55.390797420982274,0.28578850689230967,55.39153467817053,32212.92061379514,0.9802191216911097
19.660000000429136,591.126137936255,55.78862534605797,0.29235967260377477,55.78939139461002,32658.505025254515,1.0149316983762597
19.780000000431755,597.8497860583011,56.18681949810545,0.29931655376128025,56.18761674703812,33107.16141995683,1.0504571687080129
19.900000000434375,604.6212236564606,56.585372970598385,0.3063084222656243,56.58620202020345,33560.17951684913,1.0868142932062235
20.020000000436994,611.4405411512125,56.98428380367925,0.3132443856384421,56.98514475425499,34015.54503034103,1.1240031962575066
